z(m) rho(kg/m^3) rhow(kg/m^3)
28695.7  0.023  0.026 
27046.1  0.030  0.034 
25399.2  0.039  0.044 
23775.7  0.050  0.057 
22292.3  0.064  0.072 
21140.8  0.078  0.085 
20284.8  0.091  0.098 
19589.3  0.104  0.111 
18970.4  0.118  0.125 
18387.6  0.132  0.140 
17822.0  0.148  0.156 
17264.5  0.164  0.171 
16710.9  0.178  0.185 
16159.1  0.193  0.200 
15608.3  0.208  0.216 
15057.9  0.224  0.232 
14507.7  0.240  0.249 
13957.6  0.258  0.267 
13407.6  0.276  0.285 
12857.6  0.295  0.305 
12307.5  0.315  0.326 
11757.5  0.336  0.347 
11207.5  0.359  0.370 
10657.5  0.382  0.394 
10107.5  0.407  0.419 
 9557.6  0.433  0.446 
 9007.6  0.460  0.474 
 8457.6  0.488  0.503 
 7907.6  0.518  0.534 
 7357.7  0.550  0.567 
 6807.8  0.584  0.601 
 6258.0  0.619  0.638 
 5708.5  0.656  0.676 
 5159.5  0.696  0.716 
 4611.5  0.736  0.758 
 4065.7  0.779  0.801 
 3524.3  0.824  0.847 
 2991.5  0.869  0.893 
 2475.3  0.916  0.939 
 1988.0  0.961  0.983 
 1545.3  1.004  1.025 
 1161.8  1.042  1.060 
  844.5  1.075  1.090 
  591.3  1.101  1.112 
  394.3  1.121  1.129 
  243.0  1.135  1.142 
  127.7  1.146  1.151 
   40.0  1.154  1.160 
