z pres Tabs 
28695.70    14.38    218.74  
27046.10    18.62    218.40  
25399.20    24.10    217.48  
23775.70    31.15    215.77  
22292.30    39.48    212.92  
21140.80    47.58    210.24  
20284.80    54.76    207.69  
19589.30    61.45    205.02  
18970.40    68.19    201.86  
18387.60    75.33    198.52  
17822.00    83.09    195.70  
17264.50    91.60    195.23  
16710.90   100.88    197.22  
16159.10   110.92    200.33  
15608.30   121.75    203.92  
15057.90   133.40    207.66  
14507.70   145.92    211.51  
13957.60   159.36    215.44  
13407.60   173.76    219.40  
12857.60   189.15    223.39  
12307.50   205.61    227.37  
11757.50   223.18    231.27  
11207.50   241.91    235.09  
10657.50   261.89    238.82  
10107.50   283.16    242.53  
 9557.61   305.79    246.24  
 9007.61   329.85    249.96  
 8457.62   355.40    253.58  
 7907.64   382.54    256.97  
 7357.70   411.35    260.23  
 6807.81   441.92    263.42  
 6258.04   474.35    266.53  
 5708.50   508.72    269.53  
 5159.48   545.11    272.46  
 4611.50   583.59    275.35  
 4065.68   624.16    278.17  
 3524.26   666.72    280.92  
 2991.54   710.96    283.60  
 2475.32   756.17    286.16  
 1987.97   801.06    288.54  
 1545.31   843.77    290.62  
 1161.79   882.32    292.37  
  844.45   915.33    293.86  
  591.33   942.38    295.22  
  394.27   963.88    296.49  
  242.99   980.64    297.62  
  127.66   993.56    298.62  
   40.00  1003.46    299.48  

