z(m) rho(kg/m^3)
28695.7  0.023  
27046.1  0.030  
25399.2  0.039  
23775.7  0.050  
22292.3  0.064  
21140.8  0.078  
20284.8  0.091  
19589.3  0.104  
18970.4  0.118  
18387.6  0.132  
17822.0  0.148  
17264.5  0.164  
16710.9  0.178  
16159.1  0.193  
15608.3  0.208  
15057.9  0.224  
14507.7  0.240  
13957.6  0.258  
13407.6  0.276  
12857.6  0.295  
12307.5  0.315  
11757.5  0.336  
11207.5  0.359  
10657.5  0.382  
10107.5  0.407  
 9557.6  0.433  
 9007.6  0.460  
 8457.6  0.488  
 7907.6  0.518  
 7357.7  0.550  
 6807.8  0.584  
 6258.0  0.619  
 5708.5  0.656  
 5159.5  0.696  
 4611.5  0.736  
 4065.7  0.779  
 3524.3  0.824  
 2991.5  0.869  
 2475.3  0.916  
 1988.0  0.961  
 1545.3  1.004  
 1161.8  1.042  
  844.5  1.075  
  591.3  1.101  
  394.3  1.121  
  243.0  1.135  
  127.7  1.146  
   40.0  1.154  
